time	whole_blood_radioactivity	plasma_radioactivity	metabolite_parent_fraction	AIF
0	0	0	1	0
1.2023670611768629	817.4785156991871	1111.9809092936346	0.9987192717751809	1043.282728717474
2.4047341223537257	1634.9570313983743	2223.961818587269	0.9974385435503619	2086.565457434948
3.6071011835305886	2452.435547097562	3335.9427278809044	0.9961578153255428	3129.8481861524224
4.8094682447074515	3269.9140627967486	4447.923637174538	0.9948770871007236	4173.130914869896
6.011835305884315	4087.392578495936	5559.904546468173	0.9935963588759046	5216.413643587371
7.214202367061177	4904.871094195124	6671.885455761809	0.9923156306510855	6259.696372304845
8.41656942823804	5722.349609894311	7783.866365055443	0.9910349024262665	7302.979101022318
9.618936489414903	6539.828125593497	8895.847274349077	0.9897541742014474	8346.261829739791
10.821303550591766	7357.3066412926855	10007.828183642712	0.9884734459766283	9389.544558457266
12.02367061176863	8174.785156991872	11119.809092936346	0.9871927177518092	10432.827287174741
13.226037672945491	8992.26367269106	12231.790002229982	0.9859119895269901	11476.110015892215
14.428404734122354	9809.742188390248	13343.770911523618	0.984631261302171	12519.39274460969
15.630771795299218	10627.220704089435	14455.751820817253	0.983350533077352	13562.675473327165
16.83313885647608	11444.699219788621	15567.732730110885	0.9820698048525329	14605.958202044636
18.035505917652944	12262.17773548781	16679.713639404523	0.9807890766277139	15649.240930762113
19.237872978829806	13079.656251186994	17791.694548698153	0.9795083484028948	16692.523659479582
20.440240040006667	13897.134766886182	18903.675457991787	0.9782276201780756	17735.80638819706
21.642607101183533	14714.613282585371	20015.656367285424	0.9769468919532566	18779.089116914532
22.844974162360394	15532.091798284559	21127.63727657906	0.9756661637284375	19822.37184563201
24.04734122353726	16349.570313983744	22239.618185872692	0.9743854355036184	20865.654574349483
25.24970828471412	17167.04882968293	23351.599095166333	0.9731047072787994	21908.937303066956
26.452075345890982	17984.52734538212	24463.580004459964	0.9718239790539803	22952.22003178443
27.654442407067847	18802.00586108131	25575.5609137536	0.9705432508291612	23995.502760501906
28.85680946824471	19619.484376780496	26687.541823047235	0.9692625226043421	25038.78548921938
30.059176529421567	20436.96289247968	27799.52273234087	0.967981794379523	26082.06821793685
31.261543590598436	21254.44140817887	28911.503641634506	0.966701066154704	27125.35094665433
32.4639106517753	22071.91992387806	30023.48455092814	0.9654203379298849	28168.633675371806
33.66627771295216	22889.398439577242	31135.46546022177	0.9641396097050658	29211.916404089272
34.868644774129024	23706.87695527643	32247.446369515408	0.9628588814802468	30255.19913280675
36.07101183530589	24524.35547097562	33359.427278809046	0.9615781532554276	31298.481861524226
37.27337889648275	25341.833986674803	34471.40818810267	0.9602974250306086	32341.764590241695
38.47574595765961	26159.31250237399	35583.389097396306	0.9590166968057895	33385.047318959165
39.67811301883648	26976.791018073178	36695.37000668995	0.9577359685809704	34428.330047676645
40.880480080013335	27794.269533772364	37807.350915983574	0.9564552403561514	35471.61277639412
42.0828471411902	28611.748049471553	38919.331825277215	0.9551745121313323	36514.8955051116
43.285214202367065	29429.226565170742	40031.31273457085	0.9538937839065131	37558.178233829065
44.48758126354392	30246.705080869928	41143.29364386448	0.9526130556816941	38601.46096254654
45.68994832472079	31064.183596569117	42255.27455315812	0.951332327456875	39644.74369126402
46.89231538589765	31881.662112268306	43367.25546245176	0.950051599232056	40688.02641998149
48.09468244707452	32699.14062796749	44479.236371745385	0.9487708710072369	41731.309148698965
49.297049508251376	33516.61914366667	45591.21728103902	0.9474901427824178	42774.59187741643
50.49941656942824	34334.09765936586	46703.19819033267	0.9462094145575988	43817.87460613391
51.70178363060511	35151.57617506505	47815.17909962629	0.9449286863327796	44861.15733485139
52.904150691781965	35969.05469076424	48927.16000891993	0.9436479581079605	45904.44006356886
54.10651775295883	36786.53320646343	50039.14091821356	0.9423672298831415	46947.72279228634
55.308884814135695	37604.01172216262	51151.1218275072	0.9410865016583224	47991.00552100381
56.51125187531255	38421.490237861806	52263.102736800836	0.9398057734335034	49034.288249721285
57.71361893648942	39238.96875356099	53375.08364609447	0.9385250452086843	50077.57097843876
58.91598599766628	39729.79465636241	53954.55260373365	0.9379558825401382	50597.352228815944
60.118353058843134	40118.49331822508	54365.977787788426	0.937609189321215	50953.4618613972
61.32072012002	40507.19198008776	54775.64809096209	0.9372624961022916	51309.57149397847
62.52308718119687	40895.89064195044	55183.57471718616	0.9369158028833683	51665.68112655973
63.72545424237372	41284.58930381312	55589.76877522021	0.936569109664445	52021.79075914098
64.9278213035506	41673.2879656758	55994.2412796604	0.9362224164455217	52377.90039172225
66.13018836472746	42061.98662753848	56397.00315193489	0.9358757232265984	52734.010024303505
67.33255542590432	42450.68528940116	56798.06522128709	0.9355290300076751	53090.11965688477
68.53492248708119	42839.383951263844	57197.43822574607	0.9351823367887518	53446.229289466035
69.73728954825805	43228.08261312652	57595.13281308496	0.9348356435698285	53802.338922047296
70.9396566094349	43616.7812749892	57991.15954176726	0.9344889503509052	54158.44855462856
72.14202367061178	44005.47993685188	58385.52888188127	0.934142257131982	54514.55818720982
73.34439073178864	44394.178598714556	58778.25121606269	0.9337955639130586	54870.66781979108
74.5467577929655	44782.87726057723	59169.33684040593	0.9334488706941353	55226.77745237234
75.74912485414237	45140.01133940811	59524.435166592455	0.9334138087408508	55557.858426938255
76.95149191531922	45478.04793242157	59857.41912754638	0.9335672927179782	55873.79633938941
78.15385897649608	45816.08452543502	60189.15310597424	0.9337207766951058	56189.73425184056
79.35622603767295	46154.12111844848	60519.644127120584	0.9338742606722332	56505.67216429171
80.55859309884981	46492.157711461936	60848.89916368334	0.9340277446493608	56821.610076742865
81.76096016002667	46830.19430447539	61176.92513630416	0.9341812286264882	57137.54798919401
82.96332722120354	47168.23089748885	61503.72891405338	0.9343347126036158	57453.48590164517
84.1656942823804	47506.26749050231	61829.31731490942	0.9344881965807432	57769.42381409632
85.36806134355726	47844.304083515766	62153.697106233	0.9346416805578707	58085.36172654747
86.57042840473413	48182.340676529224	62476.87500523591	0.9347951645349982	58401.29963899862
87.77279546591099	48207.37819099564	62603.20365610604	0.93485	58525.13368412065
88.97516252708785	48058.42980696859	62620.6580441705	0.93485	58542.18350445684
90.17752958826472	47909.48142294155	62638.230788653644	0.93485	58559.233324793044
91.37989664944158	47760.533038914495	62655.92309749505	0.93485	58576.28314512923
92.58226371061843	47611.58465488745	62673.73619512798	0.93485	58593.33296546542
93.7846307717953	47462.6362708604	62691.67132276187	0.93485	58610.382785801616
94.98699783297216	47313.68788683335	62709.729738670554	0.93485	58627.43260613781
96.18936489414904	47164.7395028063	62727.91271848666	0.93485	58644.482426474
97.3917319553259	47015.791118779256	62746.22155550188	0.93485	58661.532246810195
98.59409901650275	46866.8427347522	62764.6575609736	0.93485	58678.58206714639
99.79646607767963	46717.89435072515	62783.2220644381	0.93485	58695.631887482574
100.99883313885648	46568.94596669811	62801.91641403	0.93485	58712.681707818774
102.20120020003334	46419.99758267106	62820.74197680868	0.93485	58729.73152815497
103.40356726121021	46271.04919864401	62839.70013909155	0.93485	58746.78134849115
104.60593432238707	46122.100814616955	62858.79230679431	0.93485	58763.831168827346
105.80830138356393	46438.040009655204	63430.179749488234	0.9351526639625123	59330.020019390846
107.0106684447408	46980.622685186405	64273.00821427492	0.9356028836287529	60163.926887578054
108.21303550591766	47523.2053607176	65118.512631283935	0.9360531032949936	60997.833755765256
109.41540256709452	48065.7880362488	65966.70576486686	0.9365033229612343	61831.74062395246
110.61776962827139	48608.37071178	66817.60046068624	0.9369535426274749	62665.647492139666
111.82013668944825	49150.953387311194	67671.20964636395	0.9374037622937156	63499.55436032686
113.0225037506251	49693.53606284239	68527.54633213615	0.9378539819599563	64333.46122851407
114.22487081180198	50236.11873837359	69386.62361151395	0.938304201626197	65167.36809670127
115.42723787297884	50778.70141390478	70248.45466195102	0.9387544212924376	66001.27496488846
116.6296049341557	51321.284089435976	71113.05274551729	0.9392046409586783	66835.18183307567
117.83197199533257	51863.866764967184	71980.43120957912	0.939654860624919	67669.08870126288
119.03433905650942	52406.44944049838	72850.60348748631	0.9401050802911597	68502.99556945008
120.23670611768627	52886.32366993963	73614.85188756857	0.9405389727722652	69238.02234650581
121.43907317886315	53110.37393586044	73936.70553308929	0.94090625723683	69569.6601320654
122.64144024004	53334.42420178125	74258.64615962871	0.9412735417013947	69901.29791762498
123.84380730121686	53558.474467702064	74580.6738024515	0.9416408261659595	70232.93570318454
125.04617436239374	53782.52473362287	74902.78849684155	0.9420081106305243	70564.57348874412
126.2485414235706	54006.57499954368	75224.99027810167	0.9423753950950889	70896.2112743037
127.45090848474744	54230.62526546449	75547.27918155382	0.9427426795596537	71227.84905986328
128.65327554592432	54454.67553138531	75869.6552425391	0.9431099640242184	71559.48684542284
129.8556426071012	54678.72579730611	76192.11849641762	0.9434772484887832	71891.12463098242
131.05800966827806	54902.77606322692	76514.66897856876	0.943844532953348	72222.762416542
132.26037672945492	55126.826329147734	76837.30672439098	0.9442118174179127	72554.40020210156
133.46274379063178	55350.87659506854	77160.03176930183	0.9445791018824775	72886.03798766114
134.66511085180863	55574.92686098935	77482.84414873814	0.9449463863470423	73217.67577322072
135.8674779129855	54456.7855907003	75977.39408732117	0.943484408468663	71708.06632151162
137.06984497416238	52820.492361101904	73762.60328069108	0.9413162453391355	69487.64485987305
138.27221203533924	51184.19913150355	71543.71272038062	0.939148082209608	67267.22339823452
139.4745790965161	49547.90590190519	69320.7110123896	0.9369799190800806	65046.801936595984
140.67694615769295	47911.61267230684	67093.58672045732	0.9348117559505531	62826.38047495747
141.8793132188698	46275.31944270848	64862.328365866306	0.9326435928210257	60605.959013318934
143.08168028004667	44639.02621311012	62626.92442724517	0.9304754296914983	58385.53755168041
144.28404734122356	43002.73298351173	60387.36334037018	0.9283072665619708	56165.11609004183
145.4864144024004	41366.43975391337	58143.63349796615	0.9261391034324433	53944.694628403304
146.68878146357727	39730.14652431501	55895.723249505456	0.9239709403029159	51724.273166764775
147.89114852475413	38093.85329471665	53643.62090100674	0.9218027771733884	49503.85170512625
149.093515585931	36457.56006511829	51387.31471483199	0.919634614043861	47283.43024348773
150.29588264710785	35132.361506102374	49519.72551798456	0.9181094765794299	45472.6883286052
151.49824970828473	34760.25185898918	48856.701494277615	0.9185543523920653	44917.06606175602
152.7006167694616	34388.142211875995	48197.416150574216	0.9189992282047007	44361.44379490684
153.90298383063845	34016.03256476281	47541.83795310759	0.9194441040173361	43805.82152805766
155.1053508918153	33643.922917649616	46889.935721744	0.9198889798299716	43250.19926120849
156.30771795299216	33271.81327053643	46241.67862503942	0.9203338556426071	42694.57699435931
157.51008501416905	32899.70362342324	45597.03617537875	0.9207787314552425	42138.95472751012
158.7124520753459	32527.593976310043	44955.97822419633	0.9212236072678779	41583.33246066094
159.91481913652277	32155.48432919686	44318.47495727576	0.9216684830805133	41027.71019381176
161.11718619769962	31783.37468208367	43684.49689012774	0.9221133588931488	40472.08792696259
162.31955325887648	31411.265034970485	43054.01486344452	0.9225582347057842	39916.46566011341
163.52192032005334	31039.155387857296	42427.00003862915	0.9230031105184197	39360.84339326423
164.72428738123023	30667.0457407441	41803.42389339842	0.9234479863310551	38805.22112641504
165.92665444240708	30294.936093630913	41183.25821745787	0.9238928621436906	38249.598859565864
167.12902150358394	29922.826446517724	40566.47510824755	0.924337737956326	37693.97659271669
168.3313885647608	29550.716799404538	39953.04696675735	0.9247826137689614	37138.35432586751
169.53375562593766	29178.607152291348	39342.9464934102	0.9252274895815968	36582.73205901834
170.73612268711452	28806.497505178162	38736.14668401234	0.9256723653942323	36027.109792169154
171.9384897482914	28434.387858064965	38132.6208257689	0.9261172412068678	35471.48752531997
173.14085680946826	28062.278210951776	37532.342493364005	0.9265621170195032	34915.865258470796
174.34322387064512	27690.16856383859	36935.28554510385	0.9270069928321386	34360.24299162162
175.54559093182198	27318.0589167254	36341.42411912172	0.927451868644774	33804.62072477244
176.74795799299883	26945.949269612214	35750.732629643906	0.9278967444574096	33248.99845792326
177.9503250541757	26573.839622499025	35163.18576331504	0.928341620270045	32693.376191074087
179.15269211535258	26201.72997538583	34578.75847558219	0.9287864960826804	32137.753924224897
180.35505917652944	25889.52959321862	34106.08470830097	0.9290138544948747	31685.03814411186
181.5574262377063	25720.29578087318	33893.7122193567	0.9287221326505236	31477.89685793297
182.75979329888315	25551.061968527745	33681.2071750624	0.9284304108061725	31270.75557175409
183.96216036006	25381.82815618231	33468.56945127484	0.9281386889618214	31063.614285575208
185.16452742123687	25212.594343836874	33255.798923695686	0.9278469671174703	30856.472999396323
186.36689448241376	25043.36053149143	33042.89546787133	0.9275552452731192	30649.331713217434
187.5692615435906	24874.126719145996	32829.8589591926	0.9272635234287682	30442.190427038553
188.77162860476747	24704.89290680056	32616.689272894517	0.926971801584417	30235.049140859668
189.97399566594433	24535.65909445512	32403.386284056076	0.9266800797400659	30027.907854680787
191.1763627271212	24366.425282109685	32189.9498676	0.9263883578957148	29820.766568501902
192.37872978829807	24197.191469764242	31976.379898292435	0.9260966360513637	29613.625282323017
193.58109684947493	24027.957657418807	31762.676250742814	0.9258049142070126	29406.483996144132
194.7834639106518	23858.72384507337	31548.838799403507	0.9255131923626615	29199.34270996525
195.98583097182865	23689.490032727936	31334.867418569644	0.9252214705183104	28992.201423786366
197.1881980330055	23520.256220382496	31120.761982378826	0.9249297486739593	28785.060137607485
198.39056509418236	23351.02240803706	30906.522364810917	0.9246380268296082	28577.9188514286
199.59293215535925	23181.78859569162	30692.148439687757	0.924346304985257	28370.777565249715
200.7952992165361	23012.554783346182	30477.640080672933	0.9240545831409059	28163.63627907083
201.99766627771297	22843.320971000747	30262.99716127156	0.9237628612965548	27956.49499289195
203.20003333888982	22674.08715865531	30048.219554829975	0.9234711394522037	27749.353706713064
204.40240040006668	22504.853346309872	29833.307134535513	0.9231794176078526	27542.212420534182
205.60476746124354	22335.619533964436	29618.25977341628	0.9228876957635015	27335.071134355298
206.80713452242043	22166.385721618997	29403.07734434088	0.9225959739191504	27127.92984817641
208.00950158359728	21997.15190927356	29187.75972001816	0.9223042520747993	26920.788561997524
209.21186864477414	21827.918096928122	28972.30677299697	0.9220125302304482	26713.647275818643
210.414235705951	21658.684284582687	28756.718375665918	0.921720808386097	26506.505989639758
211.61660276712786	21489.45047223725	28540.99440025309	0.921429086541746	26299.364703460877
212.81896982830472	21320.216659891812	28325.134718825833	0.9211373646973949	26092.22341728199
214.0213368894816	21150.982847546373	28109.139203290473	0.9208456428530438	25885.082131103103
215.22370395065846	20981.749035200934	27893.007725392097	0.9205539210086927	25677.940844924222
216.42607101183532	20812.515222855498	27676.74015671425	0.9202621991643416	25470.79955874534
217.62843807301218	20643.281410510062	27460.336368678716	0.9199704773199905	25263.658272566456
218.83080513418903	20474.047598164623	27243.79623254526	0.9196787554756394	25056.51698638757
220.0331721953659	20304.813785819188	27027.119619411365	0.9193870336312883	24849.37570020869
221.23553925654278	20135.57997347375	26810.306400211965	0.9190953117869372	24642.2344140298
222.43790631771964	19966.346161128313	26593.356445719222	0.918803589942586	24435.09312785092
223.6402733788965	19797.112348782874	26376.269626542227	0.9185118680982349	24227.951841672035
224.84264044007335	19627.878536437438	26159.0458131268	0.9182201462538838	24020.810555493154
226.0450075012502	19458.644724092002	25941.684875755156	0.9179284244095327	23813.669269314272
227.24737456242707	19289.410911746563	25724.186684545708	0.9176367025651816	23606.527983135387
228.44974162360396	19120.177099401124	25506.55110945279	0.9173449807208305	23399.3866969565
229.6521086847808	18950.94328705569	25288.778020266393	0.9170532588764794	23192.245410777618
230.85447574595767	18781.709474710253	25070.86728661191	0.9167615370321283	22985.104124598736
232.05684280713453	18612.475662364814	24852.818777949862	0.9164698151877771	22777.96283841985
233.2592098683114	18443.241850019378	24634.63236357567	0.916178093343426	22570.821552240963
234.46157692948827	18274.00803767394	24416.30791261935	0.9158863714990749	22363.680266062074
235.66394399066513	18104.774225328503	24197.845294045313	0.9155946496547238	22156.538979883193
236.866311051842	17935.540412983068	23979.24437665202	0.9153029278103728	21949.39769370431
238.06867811301885	17766.30660063763	23760.50502907178	0.9150112059660217	21742.256407525427
239.2710451741957	17597.072788292193	23541.62711977049	0.9147194841216706	21535.115121346545
240.47341223537254	17427.838975946757	23322.610517047317	0.9144277622773195	21327.97383516766
241.67577929654945	17258.605163601318	23103.455089034498	0.9141360404329684	21120.832548988776
242.8781463577263	17089.37135125588	22884.160703697034	0.9138443185886173	20913.69126280989
244.08051341890317	16920.137538910443	22664.727228832442	0.9135525967442661	20706.54997663101
245.28288048008	16750.903726565008	22445.154532070486	0.913260874899915	20499.408690452125
246.48524754125685	16581.66991421957	22225.442480872887	0.9129691530555639	20292.267404273243
247.6876146024337	16412.436101874133	22005.590942533116	0.9126774312112128	20085.12611809436
248.88998166361063	16243.202289528692	21785.599784176058	0.9123857093668617	19877.98483191547
250.09234872478748	16073.968477183254	21565.468872757792	0.9120939875225106	19670.84354573659
251.29471578596434	15904.734664837819	21345.198075065306	0.9118022656781595	19463.702259557707
252.4970828471412	15735.500852492381	21124.787257716212	0.9115105438338084	19256.560973378822
253.69944990831806	15566.267040146946	20904.236287158525	0.9112188219894573	19049.419687199937
254.9018169694949	15397.033227801508	20683.545029670335	0.9109271001451061	18842.278401021056
256.1041840306718	15227.799415456073	20462.713351359573	0.910635378300755	18635.137114842175
257.30655109184863	15058.565603110635	20241.74111816372	0.9103436564564039	18427.99582866329
258.5089181530255	14889.3317907652	20020.62819584957	0.9100519346120528	18220.854542484405
259.7112852142024	14720.097978419753	19799.374450012907	0.9097602127677017	18013.713256305513
260.91365227537926	14550.864166074318	19577.979746078294	0.9094684909233506	17806.571970126628
262.1160193365561	14381.63035372888	19356.443949298737	0.9091767690789996	17599.430683947743
263.318386397733	14212.396541383445	19134.76692475545	0.9088850472346485	17392.289397768862
264.52075345890984	14043.16272903801	18912.948537357577	0.9085933253902974	17185.14811158998
265.7231205200867	13873.92891669257	18690.9886518419	0.9083016035459462	16978.0068254111
266.92548758126355	13704.695104347134	18468.88713277261	0.9080098817015951	16770.865539232214
268.1278546424404	13535.461292001697	18246.643844540944	0.907718159857244	16563.72425305333
269.33022170361727	13366.227479656261	18024.258651365017	0.9074264380128929	16356.582966874448
270.5325887647941	13196.993667310824	17801.731417289455	0.9071347161685418	16149.441680695567
271.734955825971	13027.759854965389	17579.062006185188	0.9068429943241907	15942.300394516684
272.9373228871479	12858.526042619942	17356.250281749086	0.9065512724798396	15735.15910833779
274.13968994832476	12689.292230274506	17133.29610750381	0.9062595506354885	15528.017822158909
275.3420570095016	12520.058417929069	16910.19934679739	0.9059678287911374	15320.876535980024
276.5444240706785	12350.824605583633	16686.959862803054	0.9056761069467862	15113.735249801142
277.74679113185533	12181.590793238196	16463.577518518887	0.9053843851024351	14906.593963622257
278.9491581930322	12012.35698089276	16240.052176767573	0.905092663258084	14699.452677443374
280.15152525420905	11843.123168547323	16016.383700196122	0.9048009414137329	14492.31139126449
281.3538923153859	11673.889356201887	15792.571951275573	0.9045092195693818	14285.170105085608
282.55625937656276	11504.65554385645	15568.616792300721	0.9042174977250307	14078.028818906723
283.7586264377396	11335.421731511015	15344.518085389833	0.9039257758806796	13870.887532727842
284.9609934989165	11166.187919165579	15120.275692484358	0.9036340540363286	13663.74624654896
286.16336056009334	10996.954106820142	14895.889475348647	0.9033423321919775	13456.604960370076
287.36572762127025	10827.720294474695	14671.359295569679	0.9030506103476263	13249.46367419118
288.5680946824471	10658.48648212926	14446.685014556784	0.9027588885032752	13042.322388012299
289.77046174362397	10489.252669783822	14221.866493541313	0.9024671666589241	12835.181101833417
290.9728288048008	10320.018857438386	13996.9035935764	0.902175444814573	12628.039815654533
292.1751958659777	10150.78504509295	13771.796175536645	0.9018837229702219	12420.89852947565
293.37756292715454	9981.551232747513	13546.544100117853	0.9015920011258708	12213.757243296764
294.5799299883314	9812.317420402078	13321.14722783673	0.9013002792815197	12006.615957117883
295.78229704950826	9643.083608056639	13095.605419030586	0.9010085574371686	11799.474670938998
296.9846641106851	9473.849795711203	12869.91853385708	0.9007168355928175	11592.333384760117
298.187031171862	9304.615983365768	12644.0864322939	0.9004251137484663	11385.192098581232
299.38939823303883	9135.382171020332	12418.10897413848	0.9001333919041152	11178.05081240235
300.5917652942157	8966.148358674893	12191.986019007714	0.8998416700597641	10970.90952622347
301.7941323553926	8796.91454632945	11965.717426337667	0.899549948215413	10763.768240044577
302.99649941656946	8758.893474820503	11914.729836537705	0.8990100544535201	10713.24328484977
304.1988664777463	8747.979752748332	11899.971129046988	0.8984188906484415	10695.073827942906
305.4012335389232	8737.06603067616	11885.212205164073	0.8978277268433629	10676.90437103604
306.60360060010004	8726.152308603989	11870.45306488421	0.8972365630382843	10658.734914129174
307.8059676612769	8715.238586531816	11855.693708202627	0.8966453992332056	10640.565457222308
309.00833472245375	8704.324864459644	11840.934135114576	0.896054235428127	10622.396000315443
310.2107017836306	8693.411142387473	11826.174345615293	0.8954630716230484	10604.226543408577
311.41306884480747	8682.497420315301	11811.41433970002	0.8948719078179698	10586.05708650171
312.6154359059843	8671.583698243128	11796.65411736399	0.8942807440128911	10567.887629594845
313.8178029671612	8660.669976170957	11781.893678602453	0.8936895802078125	10549.718172687979
315.0201700283381	8649.756254098786	11767.133023410644	0.8930984164027338	10531.548715781113
316.22253708951496	8638.842532026614	11752.372151783802	0.8925072525976552	10513.379258874247
317.4249041506918	8627.928809954443	11737.61106371717	0.8919160887925766	10495.209801967381
318.6272712118687	8617.015087882271	11722.849759205985	0.8913249249874979	10477.040345060515
319.82963827304553	8606.101365810098	11708.088238245484	0.8907337611824193	10458.87088815365
321.0320053342224	8595.187643737927	11693.32650083091	0.8901425973773407	10440.701431246785
322.23437239539925	8584.273921665756	11678.564546957501	0.8895514335722621	10422.531974339918
323.4367394565761	8573.360199593584	11663.802376620499	0.8889602697671835	10404.362517433052
324.63910651775296	8562.446477521411	11649.039989815134	0.8883691059621048	10386.193060526188
325.8414735789298	8551.53275544924	11634.277386536653	0.8877779421570262	10368.02360361932
327.0438406401067	8540.619033377068	11619.514566780292	0.8871867783519476	10349.854146712454
328.24620770128354	8529.705311304897	11604.751530541287	0.886595614546869	10331.68468980559
329.44857476246045	8518.791589232724	11589.988277814877	0.8860044507417904	10313.515232898722
330.6509418236373	8507.877867160552	11575.224808596306	0.8854132869367117	10295.345775991856
331.85330888481417	8496.964145088381	11560.461122880804	0.8848221231316331	10277.17631908499
333.055675945991	8486.050423016208	11545.69722066361	0.8842309593265545	10259.006862178125
334.2580430071679	8475.136700944036	11530.933101939965	0.8836397955214759	10240.837405271259
335.46041006834474	8464.222978871865	11516.168766705106	0.8830486317163972	10222.667948364395
336.6627771295216	8453.309256799694	11501.404214954271	0.8824574679113186	10204.498491457529
337.86514419069846	8442.39553472752	11486.639446682691	0.88186630410624	10186.329034550661
339.0675112518753	8431.48181265535	11471.874461885613	0.8812751403011614	10168.159577643797
340.2698783130522	8420.568090583178	11457.109260558263	0.8806839764960828	10149.990120736931
341.47224537422903	8409.654368511006	11442.343842695887	0.8800928126910041	10131.820663830063
342.6746124354059	8398.740646438833	11427.578208293717	0.8795016488859255	10113.6512069232
343.8769794965828	8387.826924366662	11412.81235734699	0.8789104850808469	10095.481750016334
345.07934655775966	8376.91320229449	11398.046289850943	0.8783193212757683	10077.312293109466
346.2817136189365	8365.999480222317	11383.280005800812	0.8777281574706897	10059.1428362026
347.4840806801134	8355.085758150146	11368.513505191837	0.877136993665611	10040.973379295736
348.68644774129024	8344.172036077975	11353.746788019247	0.8765458298605324	10022.803922388868
349.8888148024671	8333.258314005801	11338.97985427828	0.8759546660554537	10004.634465482002
351.09118186364395	8322.34459193363	11324.212703964175	0.8753635022503751	9986.465008575138
352.2935489248208	8311.430869861459	11309.445337072164	0.8747723384452964	9968.295551668272
353.49591598599767	8300.517147789287	11294.677753597485	0.8741811746402178	9950.126094761406
354.6982830471745	8289.603425717114	11279.90995353537	0.8735900108351392	9931.95663785454
355.9006501083514	8278.689703644943	11265.141936881058	0.8729988470300606	9913.787180947675
357.1030171695283	8267.775981572771	11250.373703629783	0.872407683224982	9895.617724040807
358.30538423070516	8256.862259500598	11235.605253776777	0.8718165194199033	9877.448267133943
359.507751291882	8245.948537428427	11220.836587317275	0.8712253556148247	9859.278810227077
360.7101183530589	8235.034815356255	11206.067704246516	0.8706341918097461	9841.10935332021
361.91248541423573	8224.121093284084	11191.298604559732	0.8700430280046675	9822.939896413345
363.1148524754126	8213.20737121191	11176.529288252155	0.8694518641995889	9804.77043950648
364.31721953658945	8202.29364913974	11161.759755319023	0.8688607003945102	9786.600982599612
365.5195865977663	8191.379927067569	11146.990005755568	0.8682695365894316	9768.431525692748
366.72195365894316	8180.466204995398	11132.220039557023	0.867678372784353	9750.262068785882
367.92432072012	8169.5524829232245	11117.44985671862	0.8670872089792744	9732.092611879016
369.1266877812969	8158.638760851053	11102.6794572356	0.8664960451741958	9713.92315497215
370.32905484247374	8147.725038778882	11087.908841103192	0.8659048813691171	9695.753698065284
371.53142190365065	8136.811316706709	11073.138008316622	0.8653137175640385	9677.584241158418
372.7337889648275	8125.897594634537	11058.366958871136	0.8647225537589599	9659.414784251552
373.93615602600437	8114.983872562366	11043.59569276196	0.8641313899538813	9641.245327344686
375.1385230871812	8104.0701504901945	11028.82420998433	0.8635402261488027	9623.07587043782
376.3408901483581	8093.156428418021	11014.052510533473	0.862949062343724	9604.906413530955
377.54325720953494	8082.24270634585	10999.280594404627	0.8623578985386454	9586.736956624089
378.7456242707118	8071.3289842736785	10984.508461593025	0.8617667347335668	9568.567499717223
379.94799133188866	8060.415262201505	10969.736112093895	0.8611755709284882	9550.398042810357
381.1503583930655	8049.501540129334	10954.96354590247	0.8605844071234096	9532.228585903491
382.3527254542424	8038.587818057163	10940.190763013989	0.8599932433183309	9514.059128996627
383.55509251541923	8027.674095984992	10925.417763423677	0.8594020795132523	9495.88967208976
384.75745957659615	8016.760373912819	10910.644547126762	0.8588109157081736	9477.720215182893
385.959826637773	8005.846651840648	10895.871114118485	0.858219751903095	9459.550758276027
387.16219369894986	7994.932929768475	10881.09746439407	0.8576285880980163	9441.381301369162
388.3645607601267	7984.019207696304	10866.323597948754	0.8570374242929377	9423.211844462296
389.5669278213036	7973.105485624132	10851.549514777766	0.8564462604878591	9405.04238755543
390.76929488248044	7962.19176355196	10836.775214876337	0.8558550966827805	9386.872930648566
